burst, startT [s], endT [s], relative startT [s], relative endT [s], cycle period [s], inst burstfreq [Hz], duration [s], dutycycle, interburst interval [s], #spikes , spikefreq in burst [Hz],Time,0 Channel 1
1,1.286216,2.19548,1.286216,2.19548,2.828264,0.353574,0.909264,0.321492,1.919,61,65.987436,1.286216,11.15914
2,4.11448,4.635704,4.11448,4.635704,2.1965,0.45527,0.521224,0.237298,1.675276,32,59.475389,4.11448,10.986328
3,6.31098,7.348092,6.31098,7.348092,2.996428,0.333731,1.037112,0.346116,1.959316,65,61.709825,6.31098,11.018372
4,9.307408,9.767584,9.307408,9.767584,2.128216,0.469877,0.460176,0.216226,1.66804,27,56.500122,9.307408,11.063491
5,11.435624,12.512208,11.435624,12.512208,3.087456,0.323891,1.076584,0.348696,2.010872,73,66.8782,11.435624,11.087928
6,14.52308,14.995652,14.52308,14.995652,2.1195,0.471809,0.472572,0.222964,1.646928,30,61.36631,14.52308,11.096191
7,16.64258,17.6785,16.64258,17.6785,2.959232,0.337926,1.03592,0.350064,1.923312,68,64.676809,16.64258,11.108458
8,19.601812,20.121488,19.601812,20.121488,2.165856,0.461711,0.519676,0.23994,1.64618,29,53.879725,19.601812,11.11587
9,21.767668,22.755824,21.767668,22.755824,2.8961,0.345292,0.988156,0.341202,1.907944,60,59.707172,21.767668,11.124344
10,24.663768,25.166748,24.663768,25.166748,2.22826,0.448781,0.50298,0.225728,1.72528,29,55.668217,24.663768,11.122918
11,26.892028,27.925016,26.892028,27.925016,3.033732,0.329627,1.032988,0.340501,2.000744,62,59.051993,26.892028,11.110781
12,29.92576,30.39294,29.92576,30.39294,2.117008,0.472365,0.46718,0.220679,1.649828,30,62.074575,29.92576,11.104995
13,32.042768,32.993924,32.042768,32.993924,2.818912,0.354747,0.951156,0.33742,1.867756,60,62.029783,32.042768,11.092154
14,34.86168,35.40658,34.86168,35.40658,2.156516,0.463711,0.5449,0.252676,1.611616,32,56.891173,34.86168,11.070721
15,37.018196,38.300628,37.018196,38.300628,3.347592,0.298722,1.282432,0.383091,2.06516,79,60.821938,37.018196,11.052187
16,40.365788,40.839896,40.365788,40.839896,2.103672,0.475359,0.474108,0.225372,1.629564,31,63.276722,40.365788,11.038601
17,42.46946,43.341364,42.46946,43.341364,2.743036,0.36456,0.871904,0.317861,1.871132,54,60.786509,42.46946,11.02289
18,45.212496,46.011552,45.212496,46.011552,2.567904,0.389423,0.799056,0.311171,1.768848,50,61.32236,45.212496,11.003465
19,47.7804,48.527368,47.7804,48.527368,2.54516,0.392903,0.746968,0.293486,1.798192,46,60.243545,47.7804,10.990437
20,50.32556,51.214792,50.32556,51.214792,2.739216,0.365068,0.889232,0.32463,1.849984,57,62.975691,50.32556,10.966551
21,53.064776,53.88244,53.064776,53.88244,2.632676,0.379842,0.817664,0.310583,1.815012,49,58.70382,53.064776,10.948451
22,55.697452,56.353952,55.697452,56.353952,2.414852,0.414104,0.6565,0.271859,1.758352,38,56.359482,55.697452,10.930241
23,58.112304,58.91294,58.112304,58.91294,2.633328,0.379748,0.800636,0.30404,1.832692,50,61.201345,58.112304,10.929002
24,60.745632,61.382832,60.745632,61.382832,2.319808,0.43107,0.6372,0.274678,1.682608,34,51.789077,60.745632,10.915339
25,63.06544,64.026976,63.06544,64.026976,2.85576,0.350169,0.961536,0.336701,1.894224,60,61.360157,63.06544,10.894775
26,65.9212,66.572724,65.9212,66.572724,2.407848,0.415309,0.651524,0.270584,1.756324,40,59.859652,65.9212,10.875408
27,68.329048,69.533968,68.329048,69.533968,3.222416,0.310326,1.20492,0.373918,2.017496,76,62.244796,68.329048,10.908508
28,71.551464,72.06476,71.551464,72.06476,2.140156,0.467256,0.513296,0.23984,1.62686,31,58.445809,71.551464,10.889459
29,73.69162,74.761772,73.69162,74.761772,3.022932,0.330805,1.070152,0.354011,1.95278,70,64.476822,73.69162,10.88562
30,76.714552,77.175704,76.714552,77.175704,2.093112,0.477758,0.461152,0.220319,1.63196,29,60.717507,76.714552,10.881054
31,78.807664,80.034208,78.807664,80.034208,3.157864,0.31667,1.226544,0.388409,1.93132,83,66.854512,78.807664,10.87616
32,81.965528,82.41534,81.965528,82.41534,2.109156,0.474123,0.449812,0.213266,1.659344,28,60.025077,81.965528,10.868789
33,84.074684,85.09608,84.074684,85.09608,2.958444,0.338016,1.021396,0.345248,1.937048,65,62.659341,84.074684,10.85968
34,87.033128,87.571888,87.033128,87.571888,2.107568,0.474481,0.53876,0.255631,1.568808,30,53.827307,87.033128,10.852051
35,89.140696,90.343112,89.140696,90.343112,3.098204,0.322768,1.202416,0.388101,1.895788,78,64.037737,89.140696,10.847473
36,92.2389,92.768172,92.2389,92.768172,2.238308,0.446766,0.529272,0.236461,1.709036,30,54.792243,92.2389,10.843658
37,94.477208,95.455316,94.477208,95.455316,2.778476,0.35991,0.978108,0.35203,1.800368,64,64.410065,94.477208,10.845138
38,97.255684,97.764872,97.255684,97.764872,2.15962,0.463044,0.509188,0.235777,1.650432,29,54.989513,97.255684,10.835759
39,99.415304,100.479256,99.415304,100.479256,3.069328,0.325804,1.063952,0.34664,2.005376,69,63.912658,99.415304,10.83637
40,102.484632,102.961544,102.484632,102.961544,2.193364,0.455921,0.476912,0.217434,1.716452,29,58.711041,102.48463,10.829034
41,104.677996,105.710188,104.677996,105.710188,2.89544,0.345371,1.032192,0.356489,1.863248,66,62.97278,104.678,10.838195
42,107.573436,108.076468,107.573436,108.076468,2.086996,0.479158,0.503032,0.241032,1.583964,28,53.674518,107.57344,10.836803
43,109.660432,110.551564,109.660432,110.551564,2.772736,0.360655,0.891132,0.321391,1.881604,55,60.597083,109.66043,10.83374
44,112.433168,113.061752,112.433168,113.061752,2.297664,0.435225,0.628584,0.273575,1.66908,34,52.49895,112.43317,10.847075
45,114.730832,115.80458,114.730832,115.80458,2.933728,0.340863,1.073748,0.366001,1.85998,65,59.604302,114.73083,10.800007
46,117.66456,118.195828,117.66456,118.195828,2.169704,0.460892,0.531268,0.244857,1.638436,31,56.468675,117.66456,10.714722
47,119.834264,120.978768,119.834264,120.978768,3.033072,0.329699,1.144504,0.377342,1.888568,75,64.65683,119.83426,10.759359
48,122.867336,123.319652,122.867336,123.319652,2.125856,0.470399,0.452316,0.212769,1.67354,27,57.481937,122.86734,10.740662
49,124.993192,126.038052,124.993192,126.038052,2.958364,0.338025,1.04486,0.353188,1.913504,71,66.994621,124.99319,10.765076
50,127.951556,128.470504,127.951556,128.470504,2.113328,0.473187,0.518948,0.24556,1.59438,31,57.80926,127.95156,10.864739
51,130.064884,131.258668,130.064884,131.258668,3.098292,0.322758,1.193784,0.385304,1.904508,75,61.987763,130.06488,10.863917
52,133.163176,133.600364,133.163176,133.600364,2.099824,0.47623,0.437188,0.208202,1.662636,27,59.470983,133.16318,10.872626
53,135.263,136.322132,135.263,136.322132,2.92934,0.341374,1.059132,0.36156,1.870208,67,62.315179,135.263,10.86731
54,138.19234,138.657712,138.19234,138.657712,2.260636,0.442353,0.465372,0.205859,1.795264,28,58.018102,138.19234,10.859299
55,140.452976,141.69702,140.452976,141.69702,3.164096,0.316046,1.244044,0.393175,1.920052,79,62.698747,140.45298,10.871794
56,143.617072,144.084084,143.617072,144.084084,2.05856,0.485776,0.467012,0.226863,1.591548,30,62.096905,143.61707,10.832731
57,145.675632,146.491232,145.675632,146.491232,2.714696,0.368365,0.8156,0.300439,1.899096,50,60.07847,145.67563,10.808481
58,148.390328,148.875104,148.390328,148.875104,2.20768,0.452964,0.484776,0.219586,1.722904,31,61.884252,148.39033,10.765076
59,150.598008,151.857344,150.598008,151.857344,3.154536,0.317004,1.259336,0.399214,1.8952,79,61.937402,150.59801,10.7293
60,153.752544,154.217716,153.752544,154.217716,2.151552,0.464781,0.465172,0.216203,1.68638,29,60.192789,153.75254,10.664344
61,155.904096,157.046312,155.904096,157.046312,3.149052,0.317556,1.142216,0.362717,2.006836,74,63.910854,155.9041,10.635047
62,159.053148,159.497576,159.053148,159.497576,2.120044,0.471688,0.444428,0.209631,1.675616,29,63.002331,159.05315,10.587404
63,161.173192,162.296,161.173192,162.296,2.95152,0.338808,1.122808,0.380417,1.828712,67,58.781199,161.17319,10.556371
64,164.124712,164.646328,164.124712,164.646328,2.231712,0.448086,0.521616,0.233729,1.710096,31,57.513573,164.12471,10.54806
65,166.356424,167.555536,166.356424,167.555536,3.23658,0.308968,1.199112,0.370487,2.037468,78,64.214185,166.35642,10.528107
66,169.593004,170.1464,169.593004,170.1464,2.285292,0.437581,0.553396,0.242155,1.731896,35,61.438825,169.593,10.485511
67,171.878296,175.410852,171.878296,175.410852,5.982408,0.167157,3.532556,0.590491,2.449852,218,61.428609,171.8783,10.470862
68,177.860704,178.23498,177.860704,178.23498,2.09532,0.477254,0.374276,0.178625,1.721044,25,64.123802,177.8607,10.403301
69,179.956024,180.485756,179.956024,180.485756,2.221164,0.450214,0.529732,0.238493,1.691432,32,58.520157,179.95602,10.378606
70,182.177188,183.157392,182.177188,183.157392,2.855588,0.350191,0.980204,0.343258,1.875384,61,61.211748,182.17719,10.373881
71,185.032776,185.604908,185.032776,185.604908,2.210672,0.452351,0.572132,0.258805,1.63854,36,61.174694,185.03278,10.351164
72,187.243448,188.355956,187.243448,188.355956,3.083344,0.324323,1.112508,0.360812,1.970836,69,61.123156,187.24345,10.336644
73,190.326792,190.8524,190.326792,190.8524,2.157308,0.463541,0.525608,0.243641,1.6317,28,51.369081,190.32679,10.328581
74,192.4841,193.70498,192.4841,193.70498,3.198836,0.312614,1.22088,0.381664,1.977956,78,63.069262,192.4841,10.33915
75,195.682936,196.239536,195.682936,196.239536,2.248912,0.444659,0.5566,0.247497,1.692312,33,57.491915,195.68294,10.323088
76,197.931848,199.3079,197.931848,199.3079,3.259732,0.306774,1.376052,0.422137,1.88368,84,60.317488,197.93185,10.310622
77,201.19158,201.735492,201.19158,201.735492,2.112972,0.473267,0.543912,0.257416,1.56906,32,56.994514,201.19158,10.291877
78,203.304552,204.863176,203.304552,204.863176,3.5454,0.282056,1.558624,0.439619,1.986776,93,59.026423,203.30455,10.292053
79,206.849952,207.33442,206.849952,207.33442,2.118584,0.472013,0.484468,0.228675,1.634116,29,57.795355,206.84995,10.281653
80,208.968536,211.803932,208.968536,211.803932,5.080964,0.196813,2.835396,0.558043,2.245568,173,60.661721,208.96854,10.286173
81,214.0495,214.465332,214.0495,214.465332,2.161832,0.462571,0.415832,0.192352,1.746,27,62.525251,214.0495,10.266113
82,216.211332,217.249648,216.211332,217.249648,3.071296,0.325595,1.038316,0.338071,2.03298,70,66.453758,216.21133,10.256958
83,219.282628,220.041232,219.282628,220.041232,2.705796,0.369577,0.758604,0.280363,1.947192,45,58.001276,219.28263,10.252803
84,221.988424,223.262008,221.988424,223.262008,3.289792,0.303971,1.273584,0.387132,2.016208,77,59.674117,221.98842,10.275609
85,225.278216,225.988612,225.278216,225.988612,2.579524,0.387668,0.710396,0.275398,1.869128,43,59.121955,225.27822,10.277299
86,227.85774,229.187796,227.85774,229.187796,3.342604,0.299168,1.330056,0.39791,2.012548,79,58.644147,227.85774,10.264587
87,231.200344,231.88912,231.200344,231.88912,2.520952,0.396676,0.688776,0.273221,1.832176,39,55.170331,231.20034,10.25231
88,233.721296,235.283172,233.721296,235.283172,3.710236,0.269525,1.561876,0.420964,2.14836,97,61.464546,233.7213,10.246301
89,237.431532,237.992748,237.431532,237.992748,2.388632,0.41865,0.561216,0.234953,1.827416,32,55.237199,237.43153,10.250168
90,239.820164,241.21324,239.820164,241.21324,3.449052,0.289935,1.393076,0.403901,2.055976,81,57.426874,239.82016,10.243225
91,243.269216,243.831904,243.269216,243.831904,2.360996,0.42355,0.562688,0.238327,1.798308,34,58.647066,243.26922,10.229492
92,245.630212,247.161576,245.630212,247.161576,3.57192,0.279961,1.531364,0.428723,2.040556,93,60.07716,245.63021,10.235121
93,249.202132,249.646756,249.202132,249.646756,2.222708,0.449902,0.444624,0.200037,1.778084,27,58.476376,249.20213,10.227966
94,251.42484,252.829208,251.42484,252.829208,3.423544,0.292095,1.404368,0.410209,2.019176,84,59.101318,251.42484,10.225443
95,254.848384,255.640184,254.848384,255.640184,2.66118,0.375773,0.7918,0.297537,1.86938,48,59.358424,254.84838,10.227239
96,257.509564,259.2031,257.509564,259.2031,3.78722,0.264046,1.693536,0.447171,2.093684,101,59.048051,257.50956,10.217819
97,261.296784,261.774704,261.296784,261.774704,2.308324,0.433215,0.47792,0.207042,1.830404,27,54.40241,261.29678,10.218952
98,263.605108,265.92104,263.605108,265.92104,4.651656,0.214977,2.315932,0.497873,2.335724,139,59.587242,263.60511,10.227127
99,268.256764,268.71328,268.256764,268.71328,2.23514,0.447399,0.456516,0.204245,1.778624,26,54.762593,268.25676,10.229492
100,270.491904,272.026988,270.491904,272.026988,3.809644,0.262492,1.535084,0.402947,2.27456,97,62.537294,270.4919,10.279283
101,274.301548,274.907284,274.301548,274.907284,2.458188,0.406804,0.605736,0.246416,1.852452,36,57.780947,274.30155,10.272963
102,276.759736,278.121304,276.759736,278.121304,3.4415,0.290571,1.361568,0.395632,2.079932,82,59.490235,276.75974,10.284623
103,280.201236,280.900944,280.201236,280.900944,2.571472,0.388882,0.699708,0.272104,1.871764,43,60.025039,280.20124,10.295821
104,282.772708,284.4332,282.772708,284.4332,3.912588,0.255585,1.660492,0.424397,2.252096,104,62.029808,282.77271,10.319266
105,286.685296,287.14592,286.685296,287.14592,2.288704,0.436928,0.460624,0.20126,1.82808,27,56.44517,286.6853,10.36978
106,288.974,290.68536,288.974,290.68536,3.9899,0.250633,1.71136,0.428923,2.27854,101,58.433059,288.974,10.397104
107,292.9639,293.408196,292.9639,293.408196,2.271544,0.440229,0.444296,0.195592,1.827248,28,60.770297,292.9639,10.446255
108,295.235444,296.799368,295.235444,296.799368,3.746388,0.266924,1.563924,0.417448,2.182464,97,61.384057,295.23544,10.472107
109,298.981832,299.414496,298.981832,299.414496,2.157296,0.463543,0.432664,0.200558,1.724632,25,55.470296,298.98183,10.51016
110,301.139128,302.694792,301.139128,302.694792,3.747592,0.266838,1.555664,0.41511,2.191928,92,58.495922,301.13913,10.534856
111,304.88672,305.404508,304.88672,305.404508,2.358096,0.424071,0.517788,0.219579,1.840308,31,57.93877,304.88672,10.57035
112,307.244816,309.04438,307.244816,309.04438,3.991956,0.250504,1.799564,0.450798,2.192392,110,60.570227,307.24482,10.559528
113,311.236772,311.70546,311.236772,311.70546,2.475284,0.403994,0.468688,0.189347,2.006596,26,53.340388,311.23677,10.600087
114,313.712056,314.874156,313.712056,314.874156,3.360636,0.297563,1.1621,0.345798,2.198536,78,66.259358,313.71206,10.623486
115,317.072692,317.728624,317.072692,317.728624,2.564244,0.389978,0.655932,0.255799,1.908312,38,56.408286,317.07269,10.644261
116,319.636936,321.168556,319.636936,321.168556,3.640148,0.274714,1.53162,0.420758,2.108528,92,59.414215,319.63694,10.66621
117,323.277084,323.703412,323.277084,323.703412,2.199668,0.454614,0.426328,0.193815,1.77334,25,56.294684,323.27708,10.68161
118,325.476752,327.060304,325.476752,327.060304,3.625312,0.275838,1.583552,0.436804,2.04176,91,56.834256,325.47675,10.693735
119,329.102064,329.580868,329.102064,329.580868,2.363764,0.423054,0.478804,0.20256,1.88496,29,58.479044,329.10206,10.709956
120,331.465828,332.749968,331.465828,332.749968,3.3731,0.296463,1.28414,0.3807,2.08896,77,59.183578,331.46583,10.725185
121,334.838928,335.301728,334.838928,335.301728,2.30606,0.43364,0.4628,0.200689,1.84326,28,58.340536,334.83893,10.734534
122,337.144988,338.755756,337.144988,338.755756,3.78932,0.2639,1.610768,0.425081,2.178552,96,58.978078,337.14499,10.745626
123,340.934308,341.4091,340.934308,341.4091,2.265988,0.441309,0.474792,0.20953,1.791196,29,58.973192,340.93431,10.762711
124,343.200296,344.752624,343.200296,344.752624,3.780776,0.264496,1.552328,0.410584,2.228448,94,59.910019,343.2003,10.772482
125,346.981072,347.44276,346.981072,347.44276,2.172736,0.460249,0.461688,0.212492,1.711048,28,58.481052,346.98107,10.782495
126,349.153808,350.865184,349.153808,350.865184,3.967932,0.25202,1.711376,0.431302,2.256556,98,56.679537,349.15381,10.794349
127,353.12174,353.558344,353.12174,353.558344,2.295928,0.435554,0.436604,0.190164,1.859324,28,61.840936,353.12174,10.800582
128,355.417668,356.874032,355.417668,356.874032,3.701548,0.270157,1.456364,0.393447,2.245184,85,57.677888,355.41767,10.809326
129,359.119216,359.546812,359.119216,359.546812,2.2502,0.444405,0.427596,0.190026,1.822604,29,65.482371,359.11922,10.821627
130,361.369416,362.91392,361.369416,362.91392,3.789776,0.263868,1.544504,0.407545,2.245272,90,57.623677,361.36942,10.829784
131,365.159192,365.61298,365.159192,365.61298,2.33872,0.427584,0.453788,0.194033,1.884932,25,52.888133,365.15919,10.84137
132,367.497912,369.080556,367.497912,369.080556,3.75468,0.266334,1.582644,0.421512,2.172036,91,56.866863,367.49791,10.844421
133,371.252592,371.614532,371.252592,371.614532,2.172572,0.460284,0.36194,0.166595,1.810632,25,66.309333,371.25259,10.856628
134,373.425164,375.389092,373.425164,375.389092,4.372572,0.228698,1.963928,0.449147,2.408644,123,62.120404,373.42516,10.866306
135,377.797736,378.211016,377.797736,378.211016,2.197136,0.455138,0.41328,0.188099,1.783856,25,58.072009,377.79774,10.879435
136,379.994872,383.288124,379.994872,383.288124,6.174308,0.161961,3.293252,0.53338,2.881056,208,62.855803,379.99487,10.883132
137,386.16918,386.567156,386.16918,386.567156,2.395808,0.417396,0.397976,0.166113,1.997832,25,60.305144,386.16918,11.109924
138,388.564988,389.274756,388.564988,389.274756,2.775952,0.360237,0.709768,0.255685,2.066184,46,63.400999,388.56499,11.034881
139,391.34094,391.912936,391.34094,391.912936,2.4656,0.405581,0.571996,0.231991,1.893604,36,61.189239,391.34094,11.092025
140,393.80654,394.879932,393.80654,394.879932,3.237532,0.308877,1.073392,0.331546,2.16414,68,62.418949,393.80654,11.152854
141,397.044072,397.51904,397.044072,397.51904,2.200528,0.454436,0.474968,0.215843,1.72556,28,56.845935,397.04407,11.283875
142,399.2446,400.823568,399.2446,400.823568,3.798348,0.263272,1.578968,0.415699,2.21938,99,62.065856,399.2446,11.349428
143,403.042948,403.440656,403.042948,403.440656,2.18604,0.457448,0.397708,0.181931,1.788332,25,60.345781,403.04295,11.480713
144,405.228988,406.156928,405.228988,406.156928,3.02872,0.330172,0.92794,0.30638,2.10078,55,58.193418,405.22899,11.590529
145,408.257708,408.76898,408.257708,408.76898,2.392276,0.418012,0.511272,0.213718,1.881004,35,66.500806,408.25771,11.683655
146,410.649984,411.965344,410.649984,411.965344,3.378788,0.295964,1.31536,0.389299,2.063428,81,60.819852,410.64998,11.786663
147,414.028772,414.441936,414.028772,414.441936,2.10892,0.474176,0.413164,0.195913,1.695756,25,58.088314,414.02877,11.878069
148,416.137692,417.564852,416.137692,417.564852,3.549604,0.281722,1.42716,0.402062,2.122444,86,59.558844,416.13769,11.949762
149,419.687296,420.162268,419.687296,420.162268,2.254868,0.443485,0.474972,0.210643,1.779896,28,56.845456,419.6873,12.055969
150,421.942164,423.595796,421.942164,423.595796,3.866824,0.25861,1.653632,0.427646,2.213192,102,61.077676,421.94216,12.121001
151,425.808988,426.262208,425.808988,426.262208,2.236288,0.44717,0.45322,0.202666,1.783068,25,52.954415,425.80899,12.17804
152,428.045276,429.531876,428.045276,429.531876,3.694252,0.270691,1.4866,0.402409,2.207652,87,57.850128,428.04528,12.229908
153,431.739528,432.163972,431.739528,432.163972,2.149148,0.465301,0.424444,0.197494,1.724704,27,61.256609,431.73953,12.290462
154,433.888676,435.596756,433.888676,435.596756,3.918608,0.255193,1.70808,0.435889,2.210528,103,59.716173,433.88868,12.320938
155,437.807284,438.18536,437.807284,438.18536,2.083552,0.47995,0.378076,0.181457,1.705476,25,63.4793,437.80728,12.369602
156,439.890836,441.544668,439.890836,441.544668,3.921092,0.255031,1.653832,0.421778,2.26726,97,58.047008,439.89084,12.393188
157,443.811928,444.20072,443.811928,444.20072,2.101344,0.475886,0.388792,0.185021,1.712552,26,64.301735,443.81193,12.362307
158,445.913272,447.582428,445.913272,447.582428,3.80418,0.262869,1.669156,0.438769,2.135024,103,61.108728,445.91327,12.380981
159,449.717452,450.122096,449.717452,450.122096,2.211504,0.452181,0.404644,0.182972,1.80686,26,61.782703,449.71745,12.406739
160,451.928956,453.315948,451.928956,453.315948,3.54206,0.282322,1.386992,0.391578,2.155068,87,62.004684,451.92896,12.417491
161,455.471016,455.880536,455.471016,455.880536,2.169588,0.460917,0.40952,0.188755,1.760068,26,61.04708,455.47102,12.437592
